1.0 0.0
0.995 0.000769983387713878
0.99 0.001549292964017997
0.985 0.00233836077514783
0.98 0.0031376188673388483
0.98 0.0031376188673388483
0.974375 0.004049502739578274
0.96875 0.004975445654383897
0.963125 0.005916062771337088
0.9575 0.006871969250019208
0.951875 0.00784378025001163
0.94625 0.008832110930895714
0.940625 0.009837576350403348
0.935 0.010860374798178621
0.9293750000000001 0.011899338456739178
0.92375 0.01295302003361908
0.918125 0.014019972236352329
0.9125 0.015098748447999803
0.906875 0.01618797174699197
0.90125 0.017286394532926633
0.895625 0.018392783254248635
0.89 0.019505904359402807
0.884375 0.020624524216033054
0.87875 0.02174732871404904
0.873125 0.022872772248673068
0.8675 0.023999267845047207
0.8618750000000001 0.025125228528313504
0.8562500000000001 0.02624908526247491
0.8506250000000001 0.02736970395646807
0.845 0.028486398256215444
0.839375 0.02959850230558462
0.83375 0.030705350248443248
0.828125 0.03180627376583715
0.8225 0.03290045676950339
0.816875 0.033986854128750535
0.81125 0.035064401010312635
0.805625 0.03613203258092371
0.8 0.03718884440773638
0.8 0.03718884440773638
0.7739130434782611 0.0419533048943675
0.7478260869565219 0.046515213667621395
0.7217391304347827 0.05090921425975251
0.6956521739130436 0.05517614826560429
0.6695652173913045 0.05932818391887281
0.6434782608695653 0.06332935365601883
0.6173913043478262 0.06711801778108877
0.5913043478260871 0.0707358890218813
0.5652173913043479 0.07425025245250925
0.5391304347826088 0.07771776693965342
0.5130434782608697 0.08107917907624836
0.4869565217391305 0.084230316943488
0.46086956521739136 0.08705969015531254
0.4347826086956522 0.08955373699864032
0.4086956521739131 0.0917644002818777
0.3826086956521739 0.0937807047899349
0.35652173913043483 0.09564684656437633
0.3304347826086957 0.09736041299553484
0.30434782608695654 0.09888030239841285
0.27826086956521745 0.10010854279756431
0.2521739130434783 0.10089715036830607
0.22608695652173916 0.10104471940458803
0.2 0.10027460884315105
0.2 0.10027460884315105
0.19437500000000002 0.09995852816952512
0.18875 0.09958182821214136
0.183125 0.09914097710037487
0.17750000000000002 0.09863223460562687
0.171875 0.09805184657438445
0.16625 0.09739605885313471
0.16062500000000002 0.09666111728836481
0.155 0.09584326203448756
0.149375 0.09493862074962826
0.14375000000000002 0.09394321796753581
0.138125 0.0928530744087142
0.1325 0.09166421079366725
0.12687500000000002 0.0903726080560405
0.12125000000000001 0.08897388088711305
0.11562500000000002 0.0874634465982797
0.11000000000000001 0.08583672058781795
0.10437500000000001 0.08408907148837085
0.09875000000000002 0.08221460321530559
0.09312500000000001 0.08020604002960016
0.08750000000000001 0.07805603638463814
0.081875 0.0757572467251665
0.07625000000000001 0.07330148486719983
0.07062500000000001 0.07067741885018336
0.065 0.06787298100364235
0.05937500000000001 0.06487604728722184
0.053750000000000006 0.06166658420875193
0.048125 0.05820857349556847
0.0425 0.05446407021605615
0.036875000000000005 0.050395129438599605
0.03125 0.045962611380030334
0.025625000000000002 0.04109278645384457
0.02 0.03565164571478282
0.02 0.03565164571478282
0.015 0.030156600077820797
0.01 0.023863406031584627
0.005 0.016138996623574525
0.0 0.0034363686930345178
0.0 -0.00012
0.005 -0.012983445077192813
0.01 -0.017720972756302352
0.015 -0.020156085200587388
0.02 -0.022810113636471525
0.02 -0.022810113636471525
0.025625000000000002 -0.02524906992307747
0.03125 -0.027186167975585075
0.036875000000000005 -0.02872248442801998
0.0425 -0.02995909591440785
0.048125 -0.03099707906877434
0.053750000000000006 -0.03193624678848181
0.05937500000000001 -0.032832076229784006
0.065 -0.03368507923426628
0.07062500000000001 -0.03449234716464708
0.07625000000000001 -0.03525097138364489
0.081875 -0.03595804325397818
0.08750000000000001 -0.03661065413836539
0.09312500000000001 -0.03720593285923724
0.09875000000000002 -0.037744185136349834
0.10437500000000001 -0.038231265927240896
0.11000000000000001 -0.03867358889670841
0.11562500000000002 -0.03907756770955033
0.12125000000000001 -0.039449616030564634
0.12687500000000002 -0.03979614752454929
0.1325 -0.04012348426596882
0.138125 -0.04043517056620561
0.14375000000000002 -0.040731539350575045
0.149375 -0.041012744657022406
0.155 -0.041278940523492985
0.16062500000000002 -0.04153033400509598
0.16625 -0.04176780097012614
0.171875 -0.04199267508570822
0.17750000000000002 -0.04220629892291152
0.183125 -0.04241001417843163
0.18875 -0.042604977181738335
0.19437500000000002 -0.04279193068353813
0.2 -0.042971561474620286
0.2 -0.042971561474620286
0.22608695652173916 -0.043727707530471664
0.2521739130434783 -0.0443717130798975
0.27826086956521745 -0.044882255483785556
0.30434782608695654 -0.045214973941001185
0.3304347826086957 -0.04531656542626394
0.35652173913043483 -0.04515066573045288
0.3826086956521739 -0.04473262635464641
0.4086956521739131 -0.04411209776139933
0.4347826086956522 -0.043345268949465394
0.46086956521739136 -0.042469283833250514
0.4869565217391305 -0.04149173612136535
0.5130434782608697 -0.04037753181224557
0.5391304347826088 -0.03912482400994567
0.5652173913043479 -0.03774348162624636
0.5913043478260871 -0.036199047000976474
0.6173913043478262 -0.03445779285858643
0.6434782608695653 -0.03256310911103629
0.6695652173913045 -0.030552231017243317
0.6956521739130436 -0.028488260558315086
0.7217391304347827 -0.026433460056174866
0.7478260869565219 -0.024390321368174303
0.7739130434782611 -0.022299766999872194
0.8 -0.020089623958760922
0.8 -0.020089623958760922
0.805625 -0.019588728450133836
0.81125 -0.019078009144592088
0.816875 -0.01855717425150154
0.8225 -0.01802593198022804
0.828125 -0.017483997102894635
0.83375 -0.016931376497769737
0.839375 -0.01636847939637469
0.845 -0.015795744353586404
0.8506250000000001 -0.01521360992428179
0.8562500000000001 -0.014622515561095622
0.8618750000000001 -0.014022935616998598
0.8675 -0.013415389781732257
0.873125 -0.012800400774970836
0.87875 -0.012178491316388585
0.884375 -0.01155018412565974
0.89 -0.010916113843361419
0.895625 -0.010277541386216728
0.90125 -0.009635945392080158
0.906875 -0.008992804717401704
0.9125 -0.008349598218631364
0.918125 -0.00770780872923496
0.92375 -0.007069096098332822
0.9293750000000001 -0.0064353640001942845
0.935 -0.0058085338789749695
0.940625 -0.0051905271788304655
0.94625 -0.004583265374113636
0.951875 -0.003989061714679728
0.9575 -0.0034116013270947586
0.963125 -0.0028548694496383672
0.96875 -0.0023228513205901893
0.974375 -0.0018195321782298606
0.98 -0.0013488972608370182
0.98 -0.0013488972608370182
0.985 -0.0009612154404927176
0.99 -0.0006053059834262171
0.995 -0.00028396784985586286
1.0 0.0
